Pressure (Decibar),Depth (Meter),Temperature (Celsius),Conductivity (MicroSiemens per Centimeter),Specific conductance (MicroSiemens per Centimeter),Salinity (Practical Salinity Scale),Sound velocity (Meters per Second),Density (Kilograms per Cubic Meter)
51.524644308575127,51.30006147219305,10.594852196156339,35755.280289816132,50225.352942576792,32.068559501475178,1489.2486728881677,1024.797683768951
51.15,50.92719421118386,10.581623209040716,35741.670798041436,50224.902034486244,32.0667764543841,1489.1931635555627,1024.7968741500768
50.85,50.628615066980039,10.59530655962757,35740.0058718181,50203.256167984029,32.053221955627606,1489.2206463497837,1024.7826106309944
50.55,50.3300345519093,10.604519422024239,35757.546892957864,50214.8989417885,32.062737332937438,1489.2600710918418,1024.7870741038471
50.25,50.031453531345086,10.614709375708413,35759.684251060091,50203.532301530679,32.056044261628159,1489.2833723535273,1024.7787510777243
49.95,49.732871192663673,10.61077264684771,35755.527337549662,50203.245647233613,32.05548668430594,1489.2637278620746,1024.7776363328353
49.65,49.434288999364711,10.634759040231057,35785.851155644552,50212.001034219029,32.064754446697066,1489.3554851118779,1024.7793594002856
49.35,49.135704979038969,10.619438845424991,35751.663166129969,50185.60696769927,32.044282604972963,1489.271203757193,1024.764705461412
49.05,48.837118955187343,10.611270689317843,35744.936382763255,50187.673299573536,32.044878386339988,1489.2378697679326,1024.7652169528747
48.75,48.538534017458431,10.609803688413809,35753.393592640619,50201.615691963962,32.054719044627142,1489.2396018593477,1024.7717712403992
48.45,48.2399491616834,10.626480439739838,35765.191297777681,50194.673816113362,32.051955779410115,1489.2907698316751,1024.7653898659912
48.15,47.94136117426865,10.664007434683922,35788.23827613076,50174.168370834879,32.0420969269959,1489.4075945480795,1024.7498855579559
47.85,47.642767936412014,10.710134026782756,35813.790444327686,50145.135856207067,32.027201903249228,1489.5488053889142,1024.7289613660585
47.55,47.344172172411533,10.699369747516686,35807.654078254534,50151.661403973922,32.030659765977227,1489.5097574808849,1024.7321567607032
47.25,47.045575613694837,10.708471311364335,35807.654214928989,50138.878674894564,32.022812721756814,1489.5277170809779,1024.7231170595708
46.95,46.746975899301994,10.750590206263469,35839.017680780031,50123.67274778735,32.017217377225194,1489.6657509574297,1024.7101077701766
46.65,46.448370940138084,10.778186384711592,35840.900373399716,50087.642772070365,31.99507461937926,1489.7321001005871,1024.6867304534046
46.35,46.149762195898454,10.785900028705214,35847.191215828418,50085.635944707326,31.994698589068935,1489.7540964850298,1024.6837400473385
46.05,45.85115216362361,10.790252966075544,35845.554559063828,50077.257896222058,31.98939705751852,1489.7582132259543,1024.6775009275957
45.75,45.552540759645389,10.794883583528165,35847.6905296156,50073.76325999805,31.987595154637667,1489.7675383457856,1024.6739363578515
45.45,45.253928932366534,10.805505449995996,35861.426903599808,50078.090579787946,31.992060862581095,1489.8056870069988,1024.6742061980772
45.15,44.955315939182185,10.803183275354021,35849.26232897742,50064.350498207117,31.982154962235469,1489.7805548406241,1024.6655452149462
44.85,44.656702035390175,10.80495516955629,35855.477225187686,50070.551764961223,31.986894836341,1489.7876261692809,1024.6675671306737
44.55,44.3580861583727,10.836659121775043,35871.511510312157,50048.626726641407,31.975227127243151,1489.8810677166016,1024.6516137820311
44.25,44.059465796422828,10.867279967325326,35887.304601212723,50027.91490448347,31.964276371564466,1489.9714546874609,1024.636398776232
43.95,43.76084335888941,10.865579167595731,35887.811763035956,50030.994334897448,31.966387445855933,1489.9630376119299,1024.6369802826023
43.65,43.4622211596448,10.869867142910433,35895.060053187364,50035.117094491259,31.96994806385031,1489.9775876576052,1024.6376444353855
43.35,43.16359952567656,10.871942799414571,35902.665167638283,50042.822280905588,31.975790933450639,1489.9870511361246,1024.640469906554
43.05,42.864976237833574,10.880920728867521,35895.329840183673,50020.0790713051,31.960827319143092,1489.9958694263673,1024.6259052341775
42.75,42.566350398828192,10.893850755216347,35906.963981840156,50018.266675695,31.96119193434955,1490.037161810003,1024.6225731328443
42.45,42.26772320673539,10.91076614591262,35919.105498546422,50011.611215143552,31.958583919897279,1490.08896102112,1024.6162303597821
42.15,41.969094289813839,10.941955726434223,35947.681152419529,50007.964822544556,31.959784354944272,1490.1958161599121,1024.6103473674459
41.85,41.670462120010178,10.970370597309735,35958.944374013859,49984.117173237122,31.946297289929095,1490.2750798360464,1024.5935192479651
41.55,41.3718266382127,10.979547680746176,35962.580015737047,49976.420402558018,31.942027061676004,1490.2974260843125,1024.587230894432
41.25,41.073190035004366,10.992593700485788,35976.363695133266,49977.453687434172,31.944408033708573,1490.3414451259096,1024.5854346859653
40.95,40.774551849993919,11.009762478760955,35984.757474214763,49965.280242321875,31.93788411851995,1490.3892783320225,1024.5759873562326
40.65,40.475910755067126,11.038849717354919,36004.485989745845,49952.32405046418,31.932181555606142,1490.4801332437096,1024.5650781860961
40.35,40.177267402408134,11.052410169940043,36014.712064397558,49947.717634736779,31.930604100929919,1490.5211309162621,1024.5601061539499
40.05,39.878622591396805,11.065299698657162,36023.60449277817,49942.194843482,31.928295271047279,1490.5588665089633,1024.5546821587595
39.75,39.579977281961163,11.06684010254016,36029.069514213108,49947.638068348009,31.932465947461726,1490.5643805317984,1024.556296660556
39.45,39.281332289199092,11.076754963508261,36041.960961543708,49951.777810948144,31.936677521622531,1490.5994640509002,1024.5564654128116
39.15,38.982686861116775,11.094147016878191,36058.3244856752,49950.376260192221,31.937811914028583,1490.6571795509408,1024.5529201744503
38.85,38.684039959824872,11.100149572614514,36057.564842834377,49941.018624182594,31.931977696419867,1490.6663657505987,1024.5459676109069
38.55,38.385391673408947,11.108817616879543,36065.013900447811,49939.344847986307,31.931910122452472,1490.6918773400573,1024.5430268185996
38.25,38.086741689850385,11.133818168527839,36082.6034110976,49929.131821620169,31.927646448484456,1490.76983047928,1024.5339335800115
37.95,37.788089711358069,11.131842536184932,36075.5320137145,49922.076320334294,31.9225299556582,1490.751782057969,1024.5289496837222
37.65,37.489437590393145,11.130289518745059,36080.180158034687,49930.654637178624,31.928573626234218,1490.7486486098685,1024.5325664849675
37.35,37.1907856805452,11.129592522389512,36077.705757082207,49928.193536537743,31.926869173209404,1490.7392058584171,1024.5300086025343
37.05,36.892133048748178,11.139714616957784,36086.981350219881,49927.042497019109,31.927335876310675,1490.770454832342,1024.5272235616237
36.75,36.593480051909935,11.146746328448403,36096.317919071989,49930.244884396794,31.930542005057987,1490.7941168412233,1024.5271144587305
36.45,36.294826330501955,11.142810871020812,36086.711210050926,49922.391674003877,31.924634072999545,1490.7682231387955,1024.5218627097422
36.15,35.996171613807867,11.153272050958112,36097.437703416268,49922.781059120818,31.926232522029604,1490.8020144795494,1024.5198962309851
35.85,35.69751676530435,11.146582097008622,36092.513547362978,49925.209319237241,31.927317886824092,1490.7748446273349,1024.5205687978885
35.55,35.39886198359433,11.14729467497402,36094.164725864015,49926.509093435991,31.928448012714806,1490.7737728085442,1024.5199649266076
35.25,35.100206681676255,11.159480917506741,36104.998174872177,49924.663267762531,31.928654199796281,1490.8119523437104,1024.5166101132488
34.95,34.801550263797239,11.17217929682618,36114.65570227924,49920.486412948878,31.92725969424572,1490.849994136727,1024.5119188597657
34.65,34.502891976577004,11.191711019987688,36126.913751597043,49910.4805125753,31.922497039529773,1490.9079897262998,1024.5033953297491
34.35,34.204231969164375,11.209879890320879,36144.017928268542,49909.055260260691,31.923674432730341,1490.9683074087991,1024.4997274545503
34.05,33.905570677740862,11.221468163539436,36151.345135393334,49903.202393909742,31.920953060523445,1491.0007997780467,1024.4941965863245
33.75,33.6069085179506,11.233566623444547,36165.425004894627,49905.968933091688,31.924416230617908,1491.0425060613261,1024.4933803339541
33.45,33.308245498313212,11.246011810137212,36173.7892723733,49900.371745528551,31.921969605833244,1491.0783122538494,1024.4879079808907
33.15,33.00958042462873,11.254253826352962,36172.821940002592,49887.69333560083,31.914010309115564,1491.0927318820541,1024.4788989720969
32.85,32.710914362599404,11.251735792410978,36174.075897456285,49892.888032452574,31.917543943219151,1491.0832032766123,1024.4807378956807
32.55,32.412247667866176,11.261135842759581,36177.601841041927,49884.816071289264,31.912990108638574,1491.1057750059263,1024.4741688242357
32.25,32.113580670014493,11.266421430927908,36190.5366684484,49895.378756042926,31.921222421720476,1491.129271363196,1024.4782688121877
31.950000000000003,31.814912796358353,11.286069255644108,36200.352287877104,49881.887223491882,31.913966550746249,1491.1845202522043,1024.4677709804771
31.65,31.516242602732383,11.291450567251651,36200.39026839591,49874.543043289224,31.90947321050929,1491.1930496122036,1024.4619635787092
31.35,31.217571822516479,11.292640428615929,36205.203557462846,49879.539115753971,31.91328439845093,1491.1968602606078,1024.4633572764749
31.05,30.918901000037238,11.283551418247471,36193.981709373606,49876.569815559975,31.910274059677683,1491.1564375457049,1024.4612840856507
30.75,30.620230563037197,11.283251509760374,36200.982978902546,49886.630156567284,31.917519247397319,1491.159151473692,1024.4656121867574
30.45,30.321560199618816,11.283040452901298,36196.868774841008,49881.250748304643,31.913793919501927,1491.1489962976893,1024.4613993091512
30.15,30.022888406833495,11.294188056632365,36203.118111917822,49874.539217446552,31.910399169917174,1491.1790621184978,1024.4554169297685
29.85,29.724215477331562,11.294695524518978,36202.44231546986,49872.910892740794,31.909422314882672,1491.1747282149581,1024.4532117305546
29.55,29.425542399206556,11.298530013444566,36209.425618034016,49877.261702639829,31.913071873518497,1491.1876141476894,1024.4540078017765
29.25,29.126869885457062,11.30362189765669,36220.297790691024,49885.239953191769,31.919442727238561,1491.2081740805159,1024.456693839119
28.95,28.828196693805431,11.314271204013695,36223.703039664179,49875.29948785052,31.91369202226829,1491.2336436829521,1024.4489678008326
28.65,28.52952189107981,11.327398189842933,36235.148742206358,49873.030478050634,31.91367370714373,1491.2746674659779,1024.44525224176
28.35,28.230845798852943,11.335087438530124,36238.144362654071,49866.598537790705,31.910083441701939,1491.2923456146004,1024.4397323222447
28.05,27.932168886452008,11.335657969932605,36239.785530712565,49868.073891355736,31.911320800665955,1491.2908899103663,1024.4392363484037
27.75,27.633491857545234,11.33397401444708,36238.646996983662,49868.818344195555,31.911785971649184,1491.2806120065231,1024.4385435474289
27.45,27.334814446969613,11.336363125158615,36239.930059348881,49867.305011404729,31.911100865632335,1491.2832160531459,1024.4362285925463
27.150000000000002,27.036136269864159,11.349380760530595,36251.761189644487,49865.720448541855,31.911553012033412,1491.3243961615613,1024.4328957160224
26.85,26.737457365497882,11.347623701706029,36248.761395228517,49864.004443194353,31.910259998643504,1491.3117531810447,1024.4308501613039
26.55,26.438778514751927,11.348394052441506,36253.940581856077,49870.072016869366,31.914786476592713,1491.3149454184838,1024.4328739822211
26.25,26.1400994433818,11.353050639461415,36255.640490412654,49866.02204308127,31.912549481322223,1491.3236198712593,1024.4289471739392
25.95,25.841418625037683,11.370745012820086,36265.980352211212,49855.976746459353,31.907500628741584,1491.3745394920941,1024.4205006670964
25.650000000000002,25.542736131629393,11.387821537232592,36282.230107020943,49854.908282839075,31.908765139943231,1491.4308502899246,1024.4170672216244
25.35,25.244052779006566,11.390678350441103,36283.333331352449,49852.510280167182,31.907500485292527,1491.4343829987206,1024.4142172442191
25.05,24.945368753909282,11.394566672586697,36286.509805252208,49851.548078169762,31.907371867591106,1491.4428853363356,1024.4120647860275
24.75,24.646683949444835,11.40247062625677,36292.298533200054,49848.67497842681,31.906329216716,1491.4643282386442,1024.4084816052146
24.45,24.347998000541352,11.408404382387785,36294.467557592608,49843.529499949342,31.903450246337158,1491.4766756470046,1024.4038249810524
24.150000000000002,24.049311707334169,11.404956939961954,36294.775089371564,49848.671911943064,31.906850646038979,1491.4637658757865,1024.4057303115872
23.85,23.750625400057558,11.414170373498008,36303.601644151378,49848.178980582925,31.907645554204958,1491.4919830457238,1024.4033389202218
23.55,23.451937576855528,11.435289267736708,36317.854551478551,49838.844814164622,31.903465212874796,1491.5558147712663,1024.3949424577249
23.25,23.153248224052643,11.45057666451981,36333.370695881771,49839.226180539248,31.905549166944827,1491.6067630903856,1024.3924573095203
22.95,22.854558854185029,11.459761259881246,36347.937599205885,49846.6478429764,31.911968169490557,1491.6415878273749,1024.3944358533706
22.650000000000002,22.555867697357225,11.480712939590907,36353.798738898025,49826.053014776546,31.899741456436004,1491.6951020465074,1024.3798106672518
22.35,22.257173291772308,11.499183210807322,36365.5554331141,49816.944153350742,31.895410711442423,1491.7493969434452,1024.3717626002701
22.05,21.958476868399561,11.526711632129858,36389.948454766934,49812.790186616985,31.895593204167586,1491.8406452381539,1024.365581097511
21.75,21.659779955787332,11.517047841363219,36383.981880490384,49817.802959523324,31.898227254530177,1491.8051801364188,1024.3680173746527
21.45,21.361083141340597,11.531419667321105,36398.936142612911,49818.671809206047,31.90054183003955,1491.8531024283977,1024.3658648628102
21.150000000000002,21.062385643830417,11.533970254457531,36399.601912809761,49816.104928219007,31.899116747756445,1491.8553408959488,1024.3629427567207
20.85,20.7636875997023,11.535392293387956,36401.254342430577,49816.427383781425,31.899625118255365,1491.8559643590627,1024.3617261244979
20.55,20.46498865190571,11.554320010611969,36417.077879690492,49812.276454764258,31.898859529668997,1491.9160376487764,1024.3563550984052
20.25,20.166288067925173,11.562455104470924,36419.62905992414,49804.682092410527,31.894462614397792,1491.9341554099854,1024.3501143429839
19.95,19.867586369438097,11.576948175384214,36435.209234578848,49806.24553458405,31.897276377739022,1491.9830390989462,1024.3483214443768
19.650000000000002,19.5688838318549,11.577762698473617,36432.032175934568,49800.793553530915,31.893606392008586,1491.9765358800614,1024.3439697186298
19.35,19.270180627537311,11.576656554702471,36431.64617548856,49801.771959395694,31.894306001925262,1491.9685833433562,1024.3433590017748
19.05,18.971477076399125,11.582601023021084,36437.138184244934,49801.185762208908,31.894658018732656,1491.9847527565692,1024.3412014702678
18.75,18.672773109162446,11.572284988470717,36425.772633350571,49799.694830161236,31.892598217264126,1491.9414391053801,1024.3401156071304
18.45,18.374069516205829,11.564696434546896,36423.227140386065,49806.549338630408,31.896775963087446,1491.9150866960601,1024.3433789687392
18.150000000000002,18.075366036645505,11.575220037096981,36432.914829681387,49805.462267525312,31.897270400897842,1491.9473720618998,1024.340503803862
17.85,17.776661578456896,11.601033887966519,36458.0090619398,49804.616412661315,31.8995946096734,1492.0350344038448,1024.3362774286043
17.55,17.477955539679524,11.615171920842549,36466.304023405552,49796.712824729009,31.895621383358435,1492.0745023011662,1024.3292737759639
17.25,17.179247687753652,11.634904627505538,36482.461989797652,49791.943449480917,31.894481573820244,1492.1367920624973,1024.3234525085823
16.95,16.880538608115742,11.642873531070265,36489.138488983939,49790.225182591137,31.8942411514122,1492.1592552389077,1024.320464122455
16.650000000000002,16.581828513055864,11.664215895719636,36509.048931452831,49788.394541549547,31.895360356894873,1492.2297919208261,1024.3160988910793
16.35,16.283116556894068,11.685695717663128,36523.256124165739,49778.606360981212,31.890820421130758,1492.2939910095074,1024.3073107157513
16.05,15.984402961309604,11.701628129513122,36539.104285155394,49778.58769128142,31.892638913677537,1492.3465153734953,1024.3044658902195
15.749999999999998,15.685688055790195,11.708488431258644,36539.840759274695,49770.287909975152,31.887584227457154,1492.3593245959426,1024.2979375395919
15.45,15.386971963080146,11.713265666344832,36544.236961864932,49769.798870500854,31.887869971761827,1492.37129602754,1024.2959345420352
15.149999999999999,15.088254519373347,11.731181501838952,36555.945143691912,49761.461038030771,31.883967819538487,1492.423813286945,1024.2882829309483
14.85,14.789535261402479,11.740220373601574,36560.928099054014,49756.000001191635,31.881164465353997,1492.4468519192808,1024.2831029516954
14.549999999999999,14.490815295276812,11.745209322973995,36568.1394266063,49759.057167410137,31.8839970734015,1492.4625906624335,1024.2830369755125
14.249999999999998,14.192094693319989,11.75285510111771,36572.211451441573,49754.245419601917,31.881506132511891,1492.48116498222,1024.2783530253294
13.95,13.893373030134192,11.757997523255485,36575.720059439613,49752.057407778339,31.880617289837954,1492.4929778374237,1024.2753697788787
13.649999999999999,13.594650495471097,11.764120262781761,36579.804033555811,49749.325935302542,31.879445077966743,1492.5078454727989,1024.2719871503712
13.35,13.295927287338431,11.764189529684314,36579.394171408458,49748.674782934293,31.879111140022896,1492.502744102959,1024.2703618060416
13.049999999999999,12.997203749778787,11.758224501094851,36572.976690897558,49748.018555423187,31.878131837472079,1492.475965643891,1024.269338524949
12.75,12.698480383812811,11.75569564718027,36574.203079776031,49753.109600827047,31.881612660626018,1492.466425686644,1024.2711490101426
12.45,12.399757448138729,11.754270956651062,36575.266267477688,49756.48450572657,31.883988259939255,1492.4593891967388,1024.2718997937432
12.149999999999999,12.101035577089965,11.778764014404203,36612.774734093873,49774.340866586324,31.899438764022491,1492.557765741175,1024.2780603781421
11.85,11.80231154765611,11.867795512624102,36686.656025954973,49754.339140501223,31.894713816562057,1492.8551113912561,1024.25670897272
11.549999999999999,11.503581583853675,11.897661780598959,36695.815459499994,49726.4781677777,31.878109178258153,1492.9334764104824,1024.2369759857802
11.25,11.204848676440683,11.906810834619554,36706.726998576887,49728.933723182905,31.880939269478066,1492.9634971284513,1024.2361341080364
10.95,10.906113935287696,11.907602905933873,36693.125750683328,49709.440415573481,31.867248221658215,1492.9449334951473,1024.2240122802255
10.649999999999999,10.607378533709253,11.902752641570583,36698.927627449972,49723.834945186441,31.877124348767158,1492.9350463197086,1024.2312159376781
10.35,10.308643731492687,11.904930401248283,36698.423242383229,49720.217384750758,31.87489551028721,1492.9349583907433,1024.2277326307681
10.049999999999999,10.009908763174035,11.901105030857586,36698.380327908948,49725.31350649376,31.878250372523379,1492.9208184064196,1024.2296874356584
9.75,9.7111759260807418,11.912417564756176,36729.240210641219,49751.87570172883,31.898492577091211,1492.979101324144,1024.2419573252237
9.45,9.41244510157505,11.942941499267276,36767.033149467177,49761.918863710962,31.908963137315283,1493.0919558464714,1024.2430986523295
