Pressure (Decibar),Depth (Meter),Temperature (Celsius),Conductivity (MicroSiemens per Centimeter),Specific conductance (MicroSiemens per Centimeter),Salinity (Practical Salinity Scale),Sound velocity (Meters per Second),Density (Kilograms per Cubic Meter)
53.671053410777517,53.406493473617246,8.5239466484998765,34347.120744913009,51227.740434388812,32.489503760152864,1482.2221594982684,1025.471034030053
53.25,52.9877125212049,8.51184678459088,34333.519069079681,51225.943007215305,32.486547033335633,1482.1662080664203,1025.4686243760668
52.95,52.689332335567663,8.5039403505128934,34334.803414086084,51239.948279039469,32.495312103259764,1482.1424230580974,1025.4753136440293
52.65,52.39095313822893,8.5000457763671875,34331.86328125,51241.516967522512,32.4959456525694,1482.1236639884587,1025.4750277319438
52.35,52.092574180573685,8.4976868929350218,34332.773604466354,51246.484144114831,32.499211039292291,1482.1139135892586,1025.4765712659066
52.05,51.794194516260426,8.4922389607341735,34320.285573929665,51236.176856026679,32.491241128295833,1482.0787108691429,1025.4697804810285
51.75,51.49581496369651,8.4970937923569334,34335.674726837919,51251.721925011181,32.503078388269,1482.1066095863937,1025.476949499857
51.45,51.197433637066013,8.5068299253183621,34323.527633713158,51218.703336327388,32.481485300027906,1482.1115987385533,1025.4571964028394
51.15,50.899050335531484,8.5074416985388872,34332.746152938533,51231.524122051422,32.490742831186409,1482.1203864851163,1025.462984769064
50.85,50.600667579009183,8.50267906942184,34326.278655296985,51229.154815005306,32.488469117971761,1482.0947857544718,1025.4605526567207
50.55,50.302284639936367,8.5044040401995566,34330.599145541164,51232.964932535913,32.491556319084658,1482.1001429469309,1025.461340097434
50.25,50.003901818129968,8.51305474552971,34340.853427159891,51235.039133131548,32.4944995219645,1482.131309895035,1025.4609687930242
49.95,49.705518303665521,8.5165705444207731,34340.307198704526,51228.849850840226,32.4908247364545,1482.1350460894807,1025.4561892018623
49.65,49.4071341396908,8.5150870790928614,34340.179668162862,51230.927115186729,32.492192604599254,1482.1262434391738,1025.4561144744671
49.35,49.108748889043923,8.5118179321289062,34328.7890625,51218.929889189683,32.483373153477615,1482.0981793863268,1025.4483301385887
49.05,48.810362985813306,8.5087628045811048,34330.622285284415,51226.33516118797,32.488247564771982,1482.0878023443679,1025.4512390719719
48.75,48.5119777063065,8.5057644165616484,34330.181090514896,51230.260954061006,32.490680886167723,1482.0746276329942,1025.4522273467883
48.45,48.213592472278563,8.50479507446289,34329.39453125,51230.569318443042,32.490883152019705,1482.0663158935206,1025.451161767659
48.15,47.915206318146282,8.5058375292411181,34325.171153656527,51222.672950199136,32.48562205361938,1482.0588171158013,1025.4455132135852
47.85,47.616819893023674,8.5110736530710085,34336.383233028122,51231.398296129315,32.492716298829649,1482.0822896603036,1025.4489092400409
47.55,47.318433091145444,8.514229727370898,34333.515934443421,51222.296042214308,32.486934531159555,1482.0820790164416,1025.4425337519983
47.25,47.020045939878486,8.5255915265004578,34351.454250120929,51231.690010551596,32.495451253192044,1482.1302781618674,1025.4461178592917
46.95,46.721658073716732,8.5281828068383252,34344.932545431075,51218.004780184761,32.486353342807632,1482.1238575117159,1025.4372301895085
46.65,46.42326854696109,8.5398995116758947,34355.3476195057,51215.638865503948,32.486641563126483,1482.1632278686566,1025.4343142401981
46.35,46.124878306488796,8.5502815735393778,34365.002402119644,51214.178824094917,32.487358567315454,1482.1981108115449,1025.4319347740018
46.05,45.826487526451494,8.5467041409255877,34360.65373021159,51213.15880371839,32.486221892982286,1482.1783753881862,1025.4302158201297
45.75,45.528094954910081,8.54112939160575,34342.9179327504,51195.2318775308,32.472870060906295,1482.13609314576,1025.4192317259608
45.45,45.22970053551974,8.5322166324598463,34332.445450628431,51193.223858326666,32.470210261777247,1482.0944683033979,1025.4171255542051
45.15,44.931306736858332,8.5305094024973389,34339.447456418638,51206.271643849614,32.479268681695743,1482.094308846712,1025.4231081138544
44.85,44.632913180304712,8.5237549610064587,34328.100145826364,51199.664515140816,32.4737040761157,1482.0571908552615,1025.4183996618181
44.55,44.334519912472047,8.52360205444835,34337.137115575242,51213.3765634814,32.483471226970991,1482.063735269058,1025.4247026116277
44.25,44.036126634790513,8.5230808258056641,34329.90234375,51203.382114753687,32.476489000897395,1482.0482487837153,1025.4179420754413
43.95,43.737733214842621,8.5212022012907784,34336.003328983315,51215.351888037541,32.484761445850182,1482.0464770741619,1025.4233349052418
43.65,43.439340794123261,8.5275393410212548,34345.576512861859,51219.948120140944,32.48911811182785,1482.0706948238465,1025.424419901253
43.35,43.1409476218306,8.52793479657375,34339.4588446412,51210.220750235982,32.482465897551158,1482.0590539336849,1025.4177794290595
43.05,42.842552787309181,8.5282469392686124,34335.035723274719,51203.147879260556,32.477670012576063,1482.0493891229735,1025.4126055167956
42.75,42.544157572188723,8.53354014239219,34344.819765019041,51209.654004888755,32.483208605451843,1482.0711448632062,1025.4147736861999
42.45,42.24576182369033,8.5455324597028248,34351.502631348871,51201.307763730132,32.4793260789493,1482.1064014090173,1025.408549773696
42.15,41.947364541338516,8.5486808311416524,34350.65140823691,51195.234145169168,32.475672441726175,1482.1087775960968,1025.4038418122054
41.85,41.648966266383724,8.5574448123467857,34358.436619078406,51193.46364303177,32.475917706918928,1482.1370067392452,1025.4013379021747
41.55,41.350566668379791,8.5605603117968467,34354.786128206593,51183.272581016121,32.469358316722612,1482.1356758361328,1025.3943589513033
41.25,41.052166813314429,8.5633799325027979,34365.183265044041,51194.461544328515,32.4778100195355,1482.1517345070181,1025.3991812853228
40.95,40.753766975273756,8.5619334409134229,34358.986253982024,51187.435781183216,32.472774271311508,1482.135184681453,1025.3940860626592
40.65,40.455366966145732,8.5671851509490953,34370.390515110885,51196.41453483489,32.480045386806268,1482.1589009680372,1025.3976155509624
40.35,40.15696629897181,8.56819222554764,34362.7222090918,51183.456616021562,32.471210645843293,1482.146864060441,1025.3891736576636
40.05,39.85856451872273,8.5654516466127379,34361.843001638263,51186.32599288426,32.472944017112283,1482.1338076127672,1025.3895758615831
39.75,39.56016231789345,8.5643015333346426,34357.6794670886,51181.877616261452,32.469769317797962,1482.1206623090429,1025.3858932904529
39.45,39.261759863460604,8.5691976311415434,34366.296972933524,51187.248129297739,32.474443879944808,1482.1398452136864,1025.3874430500357
39.15,38.963356953804279,8.5676503173211458,34360.025282336152,51180.265758139962,32.469423141560227,1482.1229373994606,1025.3823748547914
38.85,38.664953003256279,8.5754824969923789,34366.858339170351,51178.5025609816,32.469526215883739,1482.1474851648845,1025.3798995909199
38.55,38.366547610154,8.5767020266732281,34360.159969601074,51166.668993139159,32.461515710492215,1482.1372602057265,1025.3720710820726
38.25,38.068141425836792,8.5802948786198545,34367.946010871092,51172.787694536783,32.466515086162879,1482.1519555979478,1025.3740721141598
37.95,37.769735385786831,8.5810176125340831,34368.547573916752,51172.582037967673,32.46661749609946,1482.1498656173358,1025.3726726492632
37.65,37.471329073689112,8.5808627879216068,34368.874952472441,51173.30541732577,32.467238950123743,1482.1451280296785,1025.3718126013444
37.35,37.172923191304847,8.5779925333884179,34371.5364193157,51181.642835166844,32.472804522789076,1482.1363106135977,1025.375235919556
37.05,36.874516715374178,8.5797494589633629,34365.330396497142,51169.724238850882,32.464816604403573,1482.1281265179932,1025.36734365042
36.75,36.576108122144007,8.5819606781005859,34360.6328125,51159.360738140582,32.457993992792161,1482.1230799621931,1025.3602952542708
36.45,36.277698934318806,8.5826811789109136,34366.067968163778,51166.355338156878,32.463167340451541,1482.1272293228178,1025.3628675261948
36.15,35.979290301404824,8.5862884411155562,34372.470292801183,51170.391085433548,32.466701612459524,1482.1401710207072,1025.3637188497687
35.85,35.680881515394326,8.58865327219869,34373.725642014026,51168.657110860026,32.4659803747033,1482.1432156719127,1025.3614255148457
35.55,35.382472106705514,8.6020022699978345,34386.536748635066,51167.392455267051,32.467280038057211,1482.1898767785197,1025.3590497592725
35.25,35.084061195062574,8.6207770112073181,34397.840521132377,51155.629909543779,32.462014250103536,1482.248738870712,1025.3507070634503
34.95,34.785649154046212,8.6406639555817257,34420.734951552848,51159.416765675473,32.467867116354647,1482.3254214597123,1025.3508986329196
34.65,34.487235184343639,8.65413487722139,34419.711244207225,51137.417987089626,32.454564426554512,1482.3544933974945,1025.3370632246172
34.35,34.188819103886516,8.6621898452261057,34428.518392030157,51138.263063584862,32.456526395002768,1482.3820995933672,1025.3360036263864
34.05,33.890402345519959,8.6704917844966882,34434.014840032105,51133.816310765869,32.454796201407767,1482.4060771877767,1025.3320148215164
33.75,33.591985328710351,8.6914985321712557,34460.115795697006,51140.669452253387,32.462963893174596,1482.4896972703446,1025.333837744955
33.45,33.293567549139674,8.7021014033755772,34463.831072296452,51130.092245293316,32.457258891718119,1482.5173531958649,1025.3263833823894
33.15,32.995147294274155,8.70833351861574,34459.852899917845,51114.738260328224,32.447520799576814,1482.5237176507967,1025.3164382230029
32.85,32.69672520849943,8.7112310238096544,34460.7808420639,51111.721220926127,32.445970010348852,1482.5277043339731,1025.3134120527218
32.55,32.398303480577667,8.7316803715740114,34490.310185950075,51124.506407654932,32.458220088266884,1482.6141848083189,1025.318507382204
32.25,32.099882212651913,8.7664741038415,34526.063917497428,51124.769218308036,32.463807236603181,1482.7459156304635,1025.3161830898494
31.950000000000003,31.801458378143437,8.7962736804601089,34540.142741657961,51100.519347533766,32.45133944766345,1482.8367245179413,1025.3004810873458
31.65,31.503031379307842,8.8113429547873032,34549.875227568016,51092.136851482479,32.447830582097509,1482.8836202674193,1025.2940495442431
31.35,31.204602498946738,8.8262256767855263,34558.852190497943,51082.926781002359,32.443705738327125,1482.9290442985418,1025.2871625968608
31.05,30.906172707537692,8.8444519212285542,34580.133688682115,51086.8572626997,32.449344476248882,1482.9988915969302,1025.2873995779905
30.75,30.607741235686731,8.8777645685699369,34602.303141995326,51069.342358700938,32.4421054110089,1483.1089875288217,1025.2752261082781
30.45,30.309307211162412,8.9211273193359375,34643.107421875,51064.204169487486,32.445070228852316,1483.2688516034393,1025.2694699231681
30.15,30.0108718490998,8.9525619617809049,34673.571797708515,51061.790030365344,32.448162513239744,1483.3844326485082,1025.2656459640857
29.85,29.712434908441377,8.9836444001259181,34699.266517839569,51052.891957801621,32.446611307091075,1483.4929141308114,1025.25823360486
29.55,29.413994811908307,9.0055253060536,34706.193082021258,51030.22636712942,32.433972873398361,1483.5536006504497,1025.2435726378919
29.25,29.115556110487088,9.0493492929680084,34784.124087018456,51078.985075057208,32.474964102845341,1483.7613033489117,1025.267429453784
28.95,28.81711714513159,9.1056185498080655,34813.918246469715,51038.39151257035,32.454658816077639,1483.9396456041698,1025.2413693756541
28.65,28.518671982466209,9.1435923852183283,34835.371228682416,51013.043436758548,32.442410168560144,1484.0600318804338,1025.22445966783
28.35,28.220222954411867,9.1735770646108463,34856.744649332883,50999.555275455052,32.437357591333935,1484.159626924516,1025.2144224813055
28.05,27.921774861977244,9.27742078910803,34990.070354962088,51039.532073079012,32.480675831665486,1484.5905117299719,1025.2304979472015
27.75,27.623324088618514,9.4328858882262043,35116.287246319436,50992.367239144063,32.469526143250945,1485.1430997923185,1025.1956142472359
27.45,27.324859751883327,9.518125914008996,35136.957402477812,50896.386278343212,32.413691446467531,1485.3822010206457,1025.1369293550608
27.150000000000002,27.026384592043648,9.543570732309874,35146.040561764225,50872.043359563351,32.400136860057344,1485.453809675704,1025.1208746808841
26.85,26.727906516899189,9.5563421249389648,35156.0078125,50867.663720588447,32.398940478416939,1485.4941228232199,1025.1165139631019
26.55,26.429426949522654,9.5681669154979367,35162.550789877918,50859.727210634221,32.395093675870953,1485.5277258479366,1025.1102347676779
26.25,26.130946240709044,9.5858365885055328,35180.850498715758,50860.198810989539,32.39800096290449,1485.5909171830053,1025.1082836968158
25.95,25.832465247230068,9.6134711994492079,35211.925593845343,50864.481910738927,32.404973870477583,1485.6954260452449,1025.107889615784
25.650000000000002,25.533982061663028,9.6530103259211248,35237.581937278461,50843.46440014775,32.395660736709381,1485.8234204492474,1025.0928369369988
25.35,25.235499902163788,9.7385045113551971,35359.447931994793,50893.739424557883,32.443062806183121,1486.1877670706444,1025.114547760131
25.05,24.937011678854468,9.8782427949567,35433.224442825252,50795.598635990922,32.392517345027422,1486.628943528721,1025.050798560548
24.75,24.638509197272786,9.966859468657983,35488.007351271925,50745.202586868094,32.3687231869823,1486.9161254502155,1025.0162278783052
24.45,24.339997802520678,10.016453605842363,35509.655688897081,50704.243337441272,32.346363782298305,1487.0633906431312,1024.9891958699318
24.150000000000002,24.041481896539548,10.049021333311677,35541.419183046441,50702.4416531522,32.349492364349224,1487.1799428707716,1024.9848575401304
23.85,23.742965460318587,10.10439486887547,35604.120587542966,50711.770877313385,32.363474812105629,1487.391862108479,1024.985164801474
23.55,23.444446772163474,10.14269499782313,35627.234233169082,50689.38827169624,32.352710872680042,1487.5119327158104,1024.969003474758
23.25,23.14592444609292,10.161138108346925,35637.382103600132,50677.230631422812,32.346607431373975,1487.5660330720916,1024.9597932552333
22.95,22.847400538893506,10.168979644775391,35645.0078125,50676.772787457492,32.347426997948915,1487.5903362448912,1024.9577561938572
22.650000000000002,22.54887563099043,10.178674649362284,35650.616911273071,50670.778911677022,32.344558069630892,1487.6168293799831,1024.9525318158608
22.35,22.250350184975794,10.189915657043457,35666.0234375,50676.483264547474,32.350185716607868,1487.6591915747322,1024.9536713019882
22.05,21.951827393315106,10.231576837513012,35734.718433924048,50714.049216036386,32.3823369986671,1487.8431337005536,1024.9703692575624
21.75,21.653303422898603,10.28431305147571,35762.3154899362,50677.358289168238,32.363187842305393,1488.0044416303006,1024.9451873153923
21.45,21.354775015433393,10.334815992537262,35812.366865104348,50675.751180744715,32.368612719863705,1488.1872990924219,1024.9395110446653
21.150000000000002,21.056241626611445,10.392170086760336,35840.320855489495,50633.121348070163,32.345739662379891,1488.360171573551,1024.910593249894
20.85,20.757703278025364,10.436664186979252,35884.02112844403,50631.206339152479,32.350110529568042,1488.519773204679,1024.9050656102538
20.55,20.459161530357118,10.474015199784221,35903.616477083662,50605.515438384959,32.336673786691321,1488.6321113101319,1024.8868651484982
20.25,20.160616468091174,10.502754607955838,35930.689269521157,50602.678110883011,32.338374521214995,1488.73190388167,1024.8819178148117
19.95,19.862069403034631,10.540016190005895,35961.769277888394,50593.349600106681,32.336510432992078,1488.8577162217505,1024.8727245998498
19.650000000000002,19.563521933425438,10.592725309144504,36029.581864843691,50613.687982452626,32.3576160957412,1489.0662327240584,1024.8787504779327
19.35,19.264972111657439,10.653625415208158,36069.783421590306,50583.6124679268,32.3438619533174,1489.2614836814946,1024.8561858383464
19.05,18.966416582897793,10.69349714474075,36093.799417738381,50560.749583284545,32.332614268373277,1489.3847319283741,1024.8391791298936
18.75,18.667856941890943,10.709304475055307,36098.015763623473,50544.271716128918,32.322954423186872,1489.4242962616979,1024.8275642250535
18.45,18.369295591187718,10.724372015576458,36115.738330982749,50547.758145665444,32.327393877425962,1489.4782430195508,1024.827051990816
18.150000000000002,18.070737864867489,10.785875139264707,36218.174641986938,50604.008566284727,32.374981572942495,1489.7490011203879,1024.8520569310745
17.85,17.7721840240923,10.856674194335938,36300.5078125,50618.899588621323,32.3942367549252,1490.0180759267387,1024.8533376764731
17.55,17.473625433158759,10.919436716923638,36327.88244834666,50568.558096612054,32.36604786981588,1490.2010805033776,1024.819056248989
17.25,17.175057628330752,10.972521004433215,36350.796164154541,50525.7834996812,32.342034951343543,1490.3546542983249,1024.7896941264087
16.95,16.876484339251348,10.999363899230957,36371.2109375,50516.463345449534,32.338699265673775,1490.4403956860585,1024.7810184553923
16.650000000000002,16.577910915948003,11.044193621784268,36432.676223701084,50538.8976182866,32.360074375186514,1490.619211362532,1024.7883830120043
16.35,16.279339863662639,11.105600357055664,36514.3671875,50566.07122773469,32.386744849105554,1490.8625116584356,1024.7969048582211
16.05,15.98076538561288,11.174891849322258,36551.622346236814,50520.707150257338,32.362614406631153,1491.0720139647187,1024.7644773277111
15.749999999999998,15.682181290569366,11.221790313720703,36561.640625,50469.124121607209,32.331404699384457,1491.1941060426791,1024.7305014492333
15.45,15.383589104494075,11.246614128864641,36562.51111158781,50435.760677673352,32.310611965551232,1491.2512032714856,1024.7085514931828
15.149999999999999,15.084986574630275,11.27787971496582,36534.609375,50353.837740864816,32.255950113486243,1491.2901216613227,1024.659118680971
14.85,14.786384794244571,11.34559174656113,36683.633650641481,50465.038382697865,32.34301649229328,1491.6267316848443,1024.713305887894
14.549999999999999,14.487786294683243,11.49440934365923,36811.466427747204,50434.39130786078,32.338038462018339,1492.1351059089852,1024.6812453946643
14.249999999999998,14.189176437389964,11.586871443592958,36856.915448020132,50369.044952153818,32.301810829542575,1492.4084108592094,1024.6349671944788
13.95,13.890556591498916,11.649554217922953,36899.781176829485,50341.377902468681,32.289084047881545,1492.6058867571378,1024.612306838392
13.649999999999999,13.591930420526152,11.704338959691208,36935.724254566681,50315.20155577462,32.276506821291925,1492.7758486776368,1024.5911731653187
13.35,13.29330292813038,11.803759326663471,37066.101623887742,50356.40692965054,32.316798874248157,1493.1631676607337,1024.6028493244198
13.049999999999999,12.994675093932651,11.938985515422138,37203.117130150436,50357.524186225986,32.332172958050378,1493.6431310745,1024.58843808978
12.75,12.696038590854252,12.051527693199295,37273.060755981925,50298.952670207029,32.302304263769983,1493.9895855507898,1024.5429761936587
12.45,12.39739157327263,12.112674062603345,37308.682996651878,50264.072771633073,32.28387302831689,1494.172502713443,1024.5159037183705
12.149999999999999,12.098738427688227,12.165412715433861,37350.360262880451,50248.816754522122,32.278549201452982,1494.3419511203485,1024.5005420775137
11.85,11.800077490254767,12.204100608825684,37344.875,50189.192036456487,32.240031705816349,1494.4235386717803,1024.4620573124091
11.549999999999999,11.501412694101466,12.247829909835167,37412.4712543008,50221.007968604041,32.267373893706534,1494.600719021608,1024.4736794028536
11.25,11.202750957255391,12.343491681279113,37536.528290645234,50258.460846422262,32.304004831440352,1494.9659313990294,1024.4826557240542
