Time (Seconds),Pressure (Decibar),Temperature (Celsius),Conductivity (MicroSiemens per Centimeter)
0.4,0,16.053897857666016,0.16145199537277222
0.6,-0.0037078869679891824,16.072546005249023,0.1634906530380249
0.8,0.00053024046831673388,16.086824417114258,0.1507149338722229
1,-3.6774068234990409E-09,16.100711822509766,0.14799696207046509
1.2,0.000531191691027999,16.102874755859375,0.11303228139877319
1.4,0.0010623870594645979,16.105735778808594,0.0998029112815857
1.6,-0.00052834292610448585,16.103244781494141,0.12492483854293823
1.8,0.0026512060189922693,16.100414276123047,0.11340218782424927
2,-0.0015897848918697832,16.102516174316406,0.085081398487091064
2.2,9.42642094159396E-07,16.1181640625,0.06536024808883667
2.4,-1.2258023929234696E-08,16.129411697387695,0.01531219482421875
19,0.050904159987187114,15.676983833312988,8256.7294921875
19.2,0.41517436902749871,14.997017860412598,33951.9921875
19.4,0.59916866101458588,14.320592880249023,35326.3359375
19.6,0.79165160809200685,13.892678260803223,37363.0703125
19.8,0.99103057415135964,13.640449523925781,37801.75390625
20,1.1596564045295619,13.495430946350098,37829.85546875
20.2,1.3229778983599108,13.414044380187988,37815.5859375
20.4,1.4783524241116481,13.364591598510742,37814.7109375
20.6,1.6225918485450261,13.334112167358398,37814.7734375
20.8,1.7673567475267422,13.313523292541504,37821.87890625
21,1.9174307514278937,13.300949096679688,37811.15234375
21.2,2.0563734687079496,13.291505813598633,37814.8671875
21.4,2.2027376795182807,13.28626823425293,37803.7265625
21.6,2.348568786385739,13.279208183288574,37795.88671875
21.8,2.4965294480017342,13.271727561950684,37797.76171875
22,2.6211556064439012,13.268468856811523,37813.1171875
22.2,2.7113131140681954,13.268396377563477,37718.03125
22.4,2.7866209589117297,13.26865291595459,37797.9140625
22.6,2.8841980527176645,13.268556594848633,37825.16796875
22.8,2.987615448037273,13.270305633544922,37837.6015625
23,3.1159599826391062,13.272854804992676,37832.1484375
23.2,3.2437704596237538,13.276344299316406,37736.03515625
23.4,3.392801143822755,13.278865814208984,37814.1171875
23.6,3.5312241086003713,13.281312942504883,37807.5234375
23.8,3.6669958587783782,13.278520584106445,37805.078125
24,3.8128489001551138,13.270406723022461,37801.5234375
24.2,3.9613512487828277,13.260717391967773,37794.1953125
24.4,4.09978279662929,13.255617141723633,37794.671875
24.6,4.2302521176080781,13.251067161560059,37791.421875
24.8,4.3548925811649895,13.244755744934082,37788.38671875
25,4.4705160540602815,13.239195823669434,37784.19140625
25.2,4.5490168005151421,13.236959457397461,37788.14453125
25.4,4.6466091531101412,13.236215591430664,37787.3046875
25.6,4.7320059185469372,13.238596916198731,37783.06640625
25.8,4.85452827144711,13.241859436035156,37814.296875
26,5.0141828875308789,13.239866256713867,37798.62109375
26.2,5.2104366628553684,13.220404624938965,37742.20703125
26.4,5.3992641762780043,13.189191818237305,37722.96875
26.6,5.5705946270175328,13.158098220825195,37704.890625
26.8,5.7382114699689772,13.115758895874023,37648.34375
27,5.8952177324760857,13.037698745727539,37599.26171875
27.2,6.0548837926516494,12.955793380737305,37538.10546875
27.4,6.2156084313184259,12.882631301879883,37458.42578125
27.6,6.3768671276023881,12.818523406982422,37417.42578125
27.8,6.5407789458345942,12.762713432312012,37377.19140625
28,6.7020395494671892,12.703632354736328,37327.06640625
28.2,6.8712633336417781,12.650979995727539,37304.2890625
28.4,7.024570293475545,12.598918914794922,37290.046875
28.6,7.193263834730212,12.54495906829834,37250.83984375
28.8,7.3513506102378088,12.480236053466797,37203.6484375
29,7.49829274768388,12.413661956787109,37180.27734375
29.2,7.6468332432842505,12.367015838623047,37171.34765625
29.4,7.8043916832205564,12.338237762451172,37183.2734375
29.6,7.9460371135133094,12.324236869812012,37196.69921875
29.8,8.0977609739818419,12.319158554077148,37180.078125
30,8.23357754685272,12.310967445373535,37116.625
30.2,8.3736322483857073,12.290627479553223,37055.48046875
30.4,8.5243013450602945,12.258636474609375,37004.61328125
30.6,8.6686113413930865,12.229192733764648,36979.16015625
30.8,8.8123796507141581,12.190708160400391,36963.85546875
31,8.95244388899031,12.147977828979492,36929.77734375
31.2,9.10099201398521,12.113594055175781,36892.27734375
31.4,9.23628788067933,12.07993221282959,36866.11328125
31.6,9.3912084574564556,12.051488876342773,36850.09375
31.8,9.540824697685732,12.024177551269531,36826.953125
32,9.6930959672118835,12.006402969360352,36827.2265625
32.2,9.8321054416940878,11.990901947021484,36828.7578125
32.4,9.9769514029927,11.976930618286133,36821.796875
32.6,10.11171893411553,11.954330444335938,36812.921875
32.8,10.259746352933673,11.925296783447266,36790.09375
33,10.397701063621932,11.897886276245117,36753.5546875
33.2,10.534061230853162,11.869133949279785,36694.359375
33.4,10.6836870078256,11.833230018615723,36649.7578125
33.6,10.826947962410346,11.795732498168945,36629.3359375
33.8,10.968087945315403,11.778253555297852,36639.78515625
34,11.102861198484131,11.770720481872559,36651.1015625
34.2,11.253553183342314,11.762982368469238,36653.95703125
34.4,11.391511708727839,11.752884864807129,36637.3046875
34.6,11.531068592267662,11.739317893981934,36620.6484375
34.8,11.67539766208678,11.726633071899414,36610.609375
35,11.811237123141252,11.716148376464844,36593.61328125
35.2,11.951854492520919,11.703502655029297,36579.9140625
35.4,12.093004012169139,11.692682266235352,36578.85546875
35.6,12.231500409869119,11.686152458190918,36575.26953125
35.8,12.371055386060307,11.67938232421875,36571.828125
36,12.514329692085482,11.67623233795166,36578.87890625
36.2,12.648053903506163,11.67551326751709,36577.34765625
36.4,12.779655235898526,11.675746917724609,36571.390625
36.6,12.912849204399285,11.673492431640625,36564.8359375
36.8,13.054538503710592,11.67179012298584,36568.765625
37,13.188264622479908,11.669223785400391,36562.0078125
37.2,13.344812167640823,11.667022705078125,36566.26953125
37.4,13.480664980135725,11.667612075805664,36569.87890625
37.6,13.626598130155038,11.66726016998291,36569.3359375
37.8,13.76776100124369,11.667289733886719,36571.1484375
38,13.901494749407535,11.667509078979492,36570.78125
38.2,14.036287076062592,11.666301727294922,36559.53125
38.4,14.181695705207883,11.66526985168457,36561.43359375
38.6,14.310127024172511,11.664260864257813,36559.46875
38.8,14.449701073850029,11.659568786621094,36553.5546875
39,14.588742973258992,11.653504371643066,36545.76953125
39.2,14.733625174181627,11.647063255310059,36541.578125
39.4,14.871078252179457,11.641838073730469,36546.59375
39.6,15.009065387794475,11.641983032226563,36545.5234375
39.8,15.1390893428675,11.643198013305664,36553.0546875
40,15.281322236539159,11.64311695098877,36545.5546875
40.2,15.415597671714725,11.640642166137695,36536.74609375
40.4,15.5509316853815,11.63539981842041,36543.40625
40.6,15.685207120557065,11.630334854125977,36531.55078125
40.8,15.814706554756066,11.625858306884766,36530.44140625
41,15.954288233828116,11.619907379150391,36537.31640625
41.2,16.100244272031023,11.616109848022461,36539.37890625
41.4,16.241948830131392,11.611586570739746,36528.0078125
41.6,16.360841498583326,11.606283187866211,36523.0546875
41.8,16.489278539593851,11.598394393920898,36501.98046875
42,16.623027546546759,11.58976936340332,36488.796875
42.2,16.756250125277013,11.58188533782959,36478.2421875
42.4,16.895843248440858,11.575672149658203,36479.95703125
42.6,17.042861679832242,11.571849822998047,36481.625
42.8,17.188823440081052,11.571344375610352,36480.96875
43,17.311963773938253,11.571990966796875,36494.859375
43.2,17.439882016120656,11.572906494140625,36486.8203125
43.4,17.584251140261063,11.567453384399414,36467.00390625
43.6,17.72543880688194,11.559253692626953,36465.921875
43.8,17.859193535880749,11.555055618286133,36471.21484375
44,18.001447410387367,11.554775238037109,36469.3125
44.2,18.126182287701603,11.554255485534668,36470.6953125
44.4,18.253572194312717,11.552530288696289,36465.53515625
44.6,18.398477283418945,11.545514106750488,36453.8359375
44.8,18.539140429165798,11.540987014770508,36452.03125
45,18.682458604209529,11.538875579833984,36460.57421875
45.2,18.811973297197593,11.53819465637207,36469.6875
45.4,18.934594832226672,11.543186187744141,36483.5390625
45.6,19.058273038398333,11.547920227050781,36478.9765625
45.8,19.187259395815104,11.53569507598877,36429.24609375
46,19.323680598202586,11.509885787963867,36389.21875
46.2,19.465409951835181,11.488981246948242,36392.63671875
46.4,19.61244554936426,11.475608825683594,36388.640625
46.6,19.750463202557405,11.46977424621582,36385.08984375
46.8,19.872556402015196,11.467708587646484,36392.18359375
47,19.996766758455408,11.463603973388672,36386.265625
47.2,20.131070803860467,11.457863807678223,36372.37109375
47.4,20.265903184836812,11.450078964233398,36373.7109375
47.6,20.413476654680345,11.444904327392578,36376.40625
47.8,20.554683394787553,11.442303657531738,36367.26171875
48,20.690046018683816,11.441276550292969,36377.05078125
48.2,20.81479806213575,11.440729141235352,36383.609375
48.4,20.94645280028983,11.441957473754883,36388.109375
48.6,21.062175455314026,11.442420959472656,36378.12109375
48.8,21.197013558336273,11.435617446899414,36359.96484375
49,21.330259025250118,11.42872428894043,36358.5
49.2,21.466691671729393,11.425034523010254,36351.54296875
49.4,21.611617741670585,11.422447204589844,36359.609375
49.6,21.743802722744586,11.423269271850586,36352.8515625
49.8,21.869092638510971,11.425332069396973,36366.0390625
50,21.993844681962905,11.426504135131836,36365.73046875
50.2,22.119661025951945,11.422979354858398,36346.9140625
50.4,22.259813002265204,11.417701721191406,36335.80078125
50.6,22.386163403871436,11.409689903259277,36335.16796875
50.8,22.525254894344847,11.403079986572266,36331.59375
51,22.661164927298735,11.399944305419922,36331.0078125
51.2,22.782205270311213,11.399046897888184,36341.3046875
51.4,22.907495186077597,11.400672912597656,36340.6484375
51.6,23.034913702918203,11.397690773010254,36330.015625
51.8,23.168168706575212,11.390298843383789,36317.21875
52,23.296647709255659,11.381752014160156,36308.953125
52.2,23.428834597678296,11.372386932373047,36302.28515625
52.4,23.556256929216165,11.364938735961914,36303.7578125
52.6,23.684205688976689,11.359551429748535,36304.78515625
52.8,23.819055236090733,11.354851722717285,36298.8359375
53,23.935323392823911,11.353398323059082,36294.59375
53.2,24.051065121334439,11.348020553588867,36292.51171875
53.4,24.18113866747192,11.344072341918945,36295.34375
53.6,24.299539239976582,11.341409683227539,36284.3359375
53.8,24.425359398662891,11.339761734008789,36288.51953125
54,24.561811118628494,11.337705612182617,36282.98046875
54.2,24.685514120332378,11.335801124572754,36283.90625
54.4,24.811345723110485,11.33394718170166,36283.484375
54.6,24.935586597128822,11.333400726318359,36288.4765625
54.8,25.062474871049503,11.33170223236084,36278.9140625
55,25.1872421732905,11.329938888549805,36278.6640625
55.2,25.320508621039306,11.325196266174316,36282.6640625
55.4,25.448999067811549,11.32282829284668,36273.05078125
55.6,25.582261700863093,11.319339752197266,36270.3671875
55.8,25.716592449149005,11.3131742477417,36269.58203125
56,25.838174479173205,11.309366226196289,36255.7421875
56.2,25.95657505167787,11.30747127532959,36254.6015625
56.4,26.085065498450113,11.303461074829102,36261.984375
56.6,26.210370673005563,11.299150466918945,36252.41796875
56.8,26.331430089504369,11.29248046875,36239.9921875
57,26.453549991843019,11.284534454345703,36236.0703125
57.2,26.582040438615266,11.280227661132813,36232.97265625
57.4,26.695138581920713,11.277053833007813,36230.76171875
57.6,26.825219757452722,11.274665832519531,36237.625
57.8,26.943093901734734,11.275214195251465,36239.14453125
58,27.056188230342912,11.273645401000977,36234.4921875
58.2,27.193708065542893,11.272048950195313,36237.07421875
58.4,27.3269859573835,11.272829055786133,36236.05078125
58.6,27.4374252566948,11.272708892822266,36236.75390625
58.8,27.568574547461189,11.271766662597656,36233.4453125
59,27.698663352387729,11.273049354553223,36235.09765625
59.2,27.825566885097473,11.272514343261719,36235.875
59.4,27.954595204184173,11.273399353027344,36228.51953125
59.6,28.058133716141963,11.273386001586914,36231.84765625
59.8,28.185037248851707,11.27175235748291,36232.4140625
60,28.309823624579032,11.270278930664063,36230.296875
60.2,28.433541885071978,11.269662857055664,36228.3671875
60.4,28.562036146541487,11.265848159790039,36219.5703125
60.6,28.67301331816725,11.263934135437012,36227.140625
60.8,28.79726563627738,11.262892723083496,36229.3828125
61,28.924172983684393,11.262312889099121,36230.4375
61.2,29.033559426550386,11.261201858520508,36212.7890625
61.4,29.151971443146849,11.25917911529541,36218.15625
61.6,29.264009100612455,11.25663948059082,36209.00390625
61.8,29.382424931906183,11.251043319702148,36208.88671875
62,29.498715976822957,11.244928359985352,36197.0390625
62.2,29.620843508556142,11.241670608520508,36201.484375
62.4,29.737130738775651,11.23892879486084,36198.2734375
62.6,29.86245117212016,11.237588882446289,36197.21875
62.8,29.972371672603344,11.236988067626953,36206.25390625
63,30.090783689199803,11.235123634338379,36201.453125
63.2,30.204949947739628,11.233445167541504,36198.43359375
63.4,30.321775050273594,11.233301162719727,36202.46875
63.6,30.438066095190365,11.231927871704102,36197.4140625
63.8,30.566037743134487,11.230988502502441,36191.95703125
64,30.678617087611808,11.230751037597656,36198.91015625
64.2,30.800218191122333,11.229731559753418,36189.3828125
64.4,30.915448750199268,11.228166580200195,36186.98828125
64.6,31.029088580516433,11.227419853210449,36193.2421875
64.8,31.154939256780864,11.226619720458984,36196.546875
65,31.278134903748423,11.226580619812012,36196.8671875
65.2,31.404519637630042,11.226480484008789,36185.26171875
65.4,31.522409040701113,11.22642707824707,36196.203125
65.6,31.640290814377657,11.226573944091797,36195.1953125
65.8,31.759774760905756,11.22746467590332,36195.609375
66,31.872884348303003,11.227693557739258,36193.5078125
66.2,31.994489266510794,11.227572441101074,36190.21875
66.4,32.097512794337725,11.227405548095703,36192.6328125
66.6,32.222833227682237,11.226791381835938,36191.1875
66.8,32.35241086317518,11.226276397705078,36195.1171875
67,32.473481723765786,11.225675582885742,36182.234375
67.2,32.572789736456,11.223437309265137,36183.97265625
67.4,32.686959809693093,11.218360900878906,36179.9921875
67.6,32.8106933289751,11.213430404663086,36166.78515625
67.8,32.925923888052033,11.208270072937012,36171.0234375
68,33.042230191757866,11.203908920288086,36170.11328125
68.2,33.14524609019027,11.202497482299805,36166.8671875
68.4,33.27217251108361,11.198494911193848,36164.171875
68.6,33.381562768646866,11.195793151855469,36158.7109375
68.8,33.499986229335128,11.193364143371582,36160.390625
69,33.621598776937446,11.19370174407959,36159.76171875
69.2,33.742150838699928,11.191984176635742,36160.3046875
69.4,33.860040241771,11.192276954650879,36161.3828125
69.6,33.978459887762,11.192759513854981,36153.25390625
69.8,34.0931716480108,11.185015678405762,36145.66796875
70,34.200974991511565,11.176773071289063,36135.12109375
70.2,34.32046275273693,11.163943290710449,36121.6640625
70.4,34.43304591191152,11.151700019836426,36118.03125
70.6,34.559442089884939,11.143020629882813,36110.90625
70.8,34.658212230260695,11.134176254272461,36094.84765625
71,34.780355020782942,11.124405860900879,36093.89453125
71.2,34.895066781031744,11.118782043457031,36091.8671875
71.4,35.011899512960241,11.115522384643555,36101.77734375
71.6,35.122895758072332,11.111998558044434,36098.58984375
71.8,35.228044072276219,11.109518051147461,36094.8359375
72,35.344346561284787,11.104467391967773,36079.94921875
72.2,35.457467592773831,11.097991943359375,36084.9453125
72.4,35.577485596919118,11.090495109558106,36070.17578125
72.6,35.704404388417927,11.082834243774414,36058.69921875
72.8,35.824960264877674,11.074844360351563,36061.359375
73,35.94604256956007,11.070938110351563,36063.0859375
73.2,36.06606438840263,11.069103240966797,36058.80859375
73.4,36.176526575897533,11.06859302520752,36064.015625
73.6,36.283803491175632,11.068525314331055,36061.890625
73.8,36.396394279744754,11.067417144775391,36062.18359375
74,36.534471060745517,11.063787460327148,36055.94921875
74.2,36.658208394724788,11.062179565429688,36058.015625
74.4,36.765485310002894,11.059598922729492,36050.8984375
74.6,36.874890826355212,11.058388710021973,36050.0703125
74.8,36.9922576159009,11.056472778320313,36049.921875
75,37.1133399205833,11.053415298461914,36048.484375
75.2,37.223275679855547,11.048529624938965,36035.8125
75.4,37.342767255778178,11.044939041137695,36037.953125
75.6,37.459607617101206,11.044071197509766,36041.58203125
75.8,37.553075328277743,11.044570922851563,36034.90625
76,37.609368814600771,11.044582366943359,36038.5
76.2,37.657170784810518,11.044122695922852,36043.1171875
76.4,37.744267951553461,11.044051170349121,36036.99609375
76.6,37.857915411265161,11.044157028198242,36022.4921875
76.8,37.979005345342088,11.041492462158203,36018.54296875
77,38.091065890991288,11.036949157714844,36014.59375
77.2,38.211087709833848,11.033328056335449,35995.21484375
77.4,38.352357392445938,11.02313232421875,35985.7421875
77.6,38.501592162948647,11.010185241699219,35979.6640625
77.8,38.633836271830269,10.999588012695313,35972.23828125
78,38.719338895116181,10.995835304260254,35986.46875
78.2,38.804315090179443,10.99513053894043,35981.875
78.4,38.909997462000518,10.991974830627441,35976.55078125
78.6,39.029489037923149,10.987453460693359,35972.078125
78.8,39.156957145828208,10.985490798950195,35973.6015625
79,39.280164236887558,10.9813871383667,35976.8984375
79.2,39.383729451726211,10.982847213745117,35980.0703125
79.4,39.480386249816817,10.984807968139648,35987.41015625
79.6,39.594575396540236,10.983799934387207,35979.9140625
79.8,39.723634233205054,10.982597351074219,35976.1171875
80,39.849496353561285,10.979432106018066,35984.78515625
80.2,39.990235793253447,10.977848052978516,35973.515625
80.4,40.113980756627257,10.979001045227051,35975.3671875
80.6,40.218602642608488,10.979612350463867,35978.99609375
80.8,40.324292643824087,10.978987693786621,35984.6484375
81,40.436353189473287,10.978260040283203,35975.12890625
81.2,40.55478809425334,10.975701332092285,35961.35546875
81.4,40.681725959238477,10.97191047668457,35953.3125
81.6,40.817689397954084,10.962678909301758,35956.12890625
81.8,40.939836003173596,10.956120491027832,35955.79296875
82,41.056149936273961,10.950611114501953,35945.20703125
82.2,41.188394045155583,10.942612648010254,35944.765625
82.4,41.311601136214932,10.934585571289063,35929.1796875
82.6,41.433755370828976,10.925678253173828,35928.51953125
82.8,41.564404936253567,10.914033889770508,35918.97265625
83,41.706742734100025,10.905769348144531,35916.0390625
83.2,41.843766658655476,10.898598670959473,35900.7890625
83.4,41.981851069050769,10.886322021484375,35895.73828125
83.6,42.1029410031277,10.880636215209961,35908.875
83.8,42.244752372751506,10.875306129455566,35916.25
84,42.39876695892805,10.870761871337891,35902.46875
84.2,42.550126515807712,10.869742393493652,35899.91796875
84.4,42.685563526300662,10.868138313293457,35913.68359375
84.6,42.820992907399074,10.867677688598633,35903.5625
84.8,42.959077317794367,10.86747932434082,35886.1953125
85,43.108315902994349,10.862761497497559,35888.49609375
85.2,43.246400313389643,10.857944488525391,35879.3046875
85.4,43.380773023345476,10.853060722351074,35866.79296875
85.6,43.515145733301317,10.845242500305176,35862.9375
85.8,43.642079783589182,10.832708358764648,35874.484375
86,43.792378854629007,10.82631778717041,35858.953125
86.2,43.936307381235238,10.817776679992676,35854.7890625
86.4,44.055276343632478,10.810200691223145,35861.83203125
86.6,44.186994024291444,10.800895690917969,35844.859375
86.8,44.31710953209884,10.792858123779297,35843.78515625
87,44.44882339806054,10.782125473022461,35837.703125
87.2,44.583192293319115,10.774528503417969,35838.68359375
