Time (Seconds),Pressure (Decibar),Temperature (Celsius),Conductivity (MicroSiemens per Centimeter)
24,0,20.376914978027344,32.776042938232422
24.2,0.16949848598904005,20.299493789672852,14095.5791015625
24.4,0.5183077706231014,19.035799026489258,32397.00390625
24.6,0.82267392476399692,17.447725296020508,37167.203125
24.8,1.1244451310899528,16.455642700195312,38583.13671875
25,1.3905660841200085,15.901148796081543,38665.41796875
25.2,1.6773455301920581,15.58208179473877,38645.0078125
25.4,1.9444907294379341,15.388519287109375,38627.5625
25.6,2.1584113650851773,15.270034790039063,38622.4921875
25.8,2.4012664794921879,15.196887969970703,38635.1484375
26,2.6544517940945092,15.160417556762695,38633.8515625
26.2,2.8952298058403869,15.138452529907227,38611.82421875
26.4,3.1509957631429035,15.118569374084473,38619.6953125
26.6,3.4279371049669045,15.102762222290039,38616.10546875
26.8,3.7105556699964737,15.092134475708008,38597.00390625
27,3.9967924753824864,15.080907821655273,38609.8984375
27.2,4.2799231635199657,15.075193405151367,38611.515625
27.4,4.5465209537082245,15.070820808410645,38611.13671875
27.6,4.8348091125488288,15.066920280456543,38613.81640625
27.8,5.1132820553249783,15.06639575958252,38619.78125
28,5.3726309670342332,15.062552452087402,38592.88671875
28.2,5.6495465596516929,15.055221557617188,38600.56640625
28.4,5.9063119676378033,15.043694496154785,38591.96875
28.6,6.1465444776746967,15.031636238098145,38590.65625
28.8,6.3929682413736977,15.026617050170898,38587.53125
29,6.6745234595404739,15.023529052734375,38589.02734375
29.2,7.0190974765353733,15.020634651184082,38589.51171875
29.4,7.3305999755859368,15.016433715820313,38577.46875
29.6,7.616793865627713,15.011851310729981,38585.390625
29.8,7.8709538353814015,15.009350776672363,38600.3125
30,8.1447385152181,15.007419586181641,38595.47265625
30.2,8.4541715410020615,15.006539344787598,38591.9453125
30.4,8.7480959150526267,15.006942749023438,38587.51953125
30.6,9.02032610575358,15.005101203918457,38578.78515625
30.8,9.2966837988959412,15.006351470947266,38600.3125
31,9.5523810916476783,15.009659767150879,38598.06640625
31.2,9.8240829467773434,15.008931159973145,38593.59375
31.4,10.060664791531034,15.011842727661133,38585.5
31.6,10.257987679375543,15.014694213867188,38586.42578125
31.8,10.487331136067708,15.013895988464356,38588.7421875
32,10.719772126939562,15.012693405151367,38581.8125
32.2,10.956344434950086,15.008476257324219,38589.71484375
32.4,11.154699198404948,15.0044527053833,38578.97265625
32.6,11.382997428046332,15.001592636108398,38579.8046875
32.8,11.642291980319554,15.000121116638184,38584.46875
33,11.889699935913086,14.998911857604981,38576.53125
33.2,12.107158703274196,14.996974945068359,38571.0078125
33.4,12.315824593438043,14.99173641204834,38567.33203125
33.6,12.560649998982747,14.989450454711914,38588.265625
33.8,12.824583223130968,14.984363555908203,38576.890625
34,13.106588575575087,14.983433723449707,38571.078125
34.2,13.382395044962566,14.983702659606934,38578.953125
34.4,13.649935065375434,14.98349666595459,38578.33203125
34.6,13.938650470309787,14.983375549316406,38570.859375
34.8,14.229427719116211,14.982254981994629,38578.015625
35,14.513491100735134,14.980086326599121,38572.5546875
35.2,14.803743828667535,14.978684425354004,38564.22265625
35.4,15.086767705281575,14.971920013427734,38561.30859375
35.6,15.393026902940537,14.963767051696777,38549.8671875
35.8,15.708582517835829,14.956703186035156,38546.57421875
36,16.003479639689125,14.951043128967285,38558.8828125
36.2,16.296305380927194,14.948694229125977,38555.6953125
36.4,16.590162997775607,14.947843551635742,38553.828125
36.6,16.88504867553711,14.946506500244141,38553.34375
36.8,17.189749569363066,14.945594787597656,38561.07421875
37,17.501677407158745,14.945110321044922,38555.72265625
37.2,17.796557362874349,14.945379257202148,38557.86328125
37.4,18.106417634752063,14.946085929870606,38559.421875
37.6,18.41523840162489,14.945959091186523,38556.265625
37.8,18.712695185343424,14.945463180541992,38555.8671875
38,19.012217627631294,14.944914817810059,38560.6015625
38.2,19.310708194308809,14.947193145751953,38557.4609375
38.4,19.610226821899413,14.946213722229004,38561.7578125
38.6,19.917491192287869,14.94730281829834,38568.1953125
38.8,20.212878502739798,14.949270248413086,38563.140625
39,20.511874516805015,14.949603080749512,38565.8203125
39.2,20.799512269761827,14.950809478759766,38571.83984375
39.4,21.070624754163955,14.950942993164063,38563.6171875
39.6,21.363421885172528,14.952395439147949,38558.40234375
39.8,21.659318457709418,14.95131778717041,38565.390625
40,21.944881015353733,14.953444480895996,38569.6328125
40.2,22.254718399047853,14.953964233398438,38566.6875
40.4,22.549056667751735,14.952930450439453,38569.578125
40.6,22.8470150841607,14.951898574829102,38577.0234375
40.8,23.144450887044272,14.953927993774414,38562.3515625
41,23.452728059556748,14.953424453735352,38567.7578125
41.2,23.762561628553602,14.953535079956055,38565.078125
41.4,24.084777704874675,14.952585220336914,38570.55078125
41.6,24.394603644476994,14.951858520507813,38571.64453125
41.8,24.7328300052219,14.95183277130127,38571.96875
42,25.057628631591797,14.949090957641602,38569.828125
42.2,25.377265972561304,14.951517105102539,38567.23046875
42.4,25.701545800103084,14.949710845947266,38585.328125
42.6,26.0139466603597,14.952133178710938,38579.84765625
42.8,26.32842271592882,14.953010559082031,38572.1796875
43,26.643921110365127,14.951376914978027,38576.81640625
43.2,26.952186838785806,14.953090667724609,38572.4765625
43.4,27.260456381903754,14.954054832458496,38574.890625
43.6,27.567695956759984,14.953714370727539,38587.953125
43.8,27.859959030151366,14.955692291259766,38578.6328125
44,28.160480923122829,14.954110145568848,38582.546875
44.2,28.452229012383356,14.953441619873047,38578.0390625
44.4,28.746555836995441,14.95484733581543,38584.15625
44.6,29.054825380113389,14.954507827758789,38584.1953125
44.8,29.363091108534071,14.956689834594727,38585.83984375
45,29.663101832071938,14.956230163574219,38576.7421875
45.2,29.981697760687936,14.951416015625,38581.71484375
45.4,30.280152087741428,14.947938919067383,38568.1953125
45.6,30.573960113525391,14.945027351379395,38571.1875
45.8,30.858475536770293,14.942638397216797,38549.98046875
46,31.147648705376518,14.935853958129883,38538.42578125
46.2,31.461071904500326,14.923200607299805,38530.609375
46.4,31.775540330674914,14.908551216125488,38522.19140625
46.6,32.093098661634656,14.89886474609375,38505.75
46.8,32.413243357340491,14.890716552734375,38525.39453125
47,32.716351615058052,14.885961532592773,38500.80078125
47.2,33.026688724093965,14.879724502563477,38490.234375
47.4,33.335988235473636,14.869369506835938,38490.97265625
47.6,33.641675228542752,14.862126350402832,38495.91796875
47.8,33.958726204766165,14.857240676879883,38483.75
48,34.2592519124349,14.855981826782227,38480.66015625
48.2,34.555650117662218,14.854748725891113,38479.95703125
48.4,34.87011854383681,14.849925041198731,38463.12109375
48.6,35.188199488321942,14.844636917114258,38453.80078125
48.8,35.506291876898871,14.837465286254883,38447.09765625
49,35.809915118747284,14.828405380249023,38373.28515625
49.2,36.122319793701173,14.801812171936035,38193.6640625
49.4,36.428537029690212,14.702620506286621,37697.9296875
49.6,36.739915551079648,14.4088716506958,37422.05859375
49.8,37.043031438191733,14.033541679382324,37165.2890625
50,37.350797441270615,13.668785095214844,36944.44921875
50.2,37.653398344251841,13.334212303161621,36774.7890625
50.4,37.963743082682292,13.033823013305664,36697.828125
50.6,38.265310202704534,12.794665336608887,36674.95703125
50.8,38.571020083957251,12.636006355285645,36653.02734375
51,38.860193252563477,12.537397384643555,36645.1171875
51.2,39.145765346950952,12.476219177246094,36629.15234375
51.4,39.433912361992732,12.430371284484863,36599.57421875
51.6,39.745306142171223,12.391532897949219,36594.64453125
51.8,40.017969301011831,12.365817070007324,36595.23046875
52,40.298887464735245,12.348484992980957,36594.40234375
52.2,40.599436060587564,12.333374977111816,36583.25390625
52.4,40.882437049018009,12.32205867767334,36580.99609375
52.6,41.1742118411594,12.316413879394531,36581.60546875
52.8,41.47270050048828,12.30937385559082,36571.87890625
53,41.753115124172638,12.303430557250977,36548.828125
53.2,42.042311180962457,12.291248321533203,36537.9375
53.4,42.341837437947589,12.274452209472656,36529.6484375
53.6,42.630522325303815,12.260457038879395,36468.9921875
53.8,42.922308561537,12.228315353393555,36412.22265625
54,43.208929697672524,12.169553756713867,36380.12109375
54.2,43.495550833808053,12.115262031555176,36339.80859375
54.4,43.772360568576389,12.066155433654785,36321.0625
54.6,44.0393627166748,12.022650718688965,36302.203125
54.8,44.312048763699,11.982592582702637,36286.03125
55,44.586802376641167,11.943792343139648,36246.953125
55.2,44.847609456380212,11.912326812744141,36267.87890625
55.4,44.981379487779407,11.894328117370606,36271.90625
55.6,45.069190046522351,11.893352508544922,36269.6015625
55.8,45.104312006632483,11.892129898071289,36284.80859375
56,45.113623725043404,11.886697769165039,36290.9765625
56.2,45.136355548434786,11.883219718933106,36287.1015625
56.4,45.182334136962893,11.883957862854004,36294.2421875
56.6,45.228305096096463,11.891166687011719,36313.9453125
56.8,45.294425286187064,11.896161079406738,36261.1328125
57,45.352279027303062,11.9013671875,36244.40625
57.2,45.40858400132921,11.901987075805664,36239.6015625
57.4,45.49071066114638,11.900449752807617,36219.59375
57.6,45.550624338785809,11.89293384552002,36212.734375
57.8,45.599185477362738,11.888810157775879,36203.2890625
58,45.6208873324924,11.883925437927246,36242.2578125
58.2,45.6069522857666,11.86566162109375,36260.1640625
58.4,45.559966701931423,11.836936950683594,36226.69140625
58.6,45.512469948662655,11.803470611572266,36211.95703125
58.8,45.470645650227866,11.778825759887695,36198.0390625
59,45.427280214097763,11.767356872558594,36206.8125
59.2,45.381839582655161,11.769063949584961,36219.08984375
59.4,45.301807276407878,11.774571418762207,36213.84375
59.6,45.198524390326604,11.780987739562988,36225.88671875
59.8,45.053939776950415,11.794290542602539,36249.375
60,44.897987365722656,11.820888519287109,36281.21875
60.2,44.720859569973413,11.844647407531738,36283.79296875
60.4,44.556121910942927,11.859796524047852,36289.60546875
60.6,44.418762334187825,11.869071960449219,36289.58984375
60.8,44.308265855577261,11.874543190002441,36297.07421875
61,44.216869566175674,11.888927459716797,36303.39453125
61.2,44.165748850504556,11.900964736938477,36305.01953125
61.4,44.123417197333438,11.910240173339844,36317.31640625
61.6,44.086239200168187,11.918817520141602,36312.40234375
61.8,44.064564132690428,11.926079750061035,36320.6953125
62,44.020168728298614,11.930689811706543,36322.48046875
62.2,43.966469277275934,11.937221527099609,36340.48828125
62.4,43.892113240559894,11.939323425292969,36346.35546875
62.6,43.77851541307237,11.935598373413086,36320.86328125
62.8,43.675240156385634,11.933740615844727,36323.578125
63,43.5688673655192,11.936131477355957,36326.3671875
63.2,43.467140875922311,11.941892623901367,36330.19921875
63.4,43.343220477634006,11.949670791625977,36356.703125
63.6,43.20483474731445,11.959527969360352,36358.9765625
63.8,43.010670513576933,11.972155570983887,36369.7890625
64,42.75608910454644,11.987289428710938,36378.671875
64.2,42.470528539021814,12.005964279174805,36415.28515625
64.4,42.19064424302843,12.051262855529785,36495.8828125
64.6,41.923161527845593,12.110300064086914,36527.390625
64.8,41.659806315104163,12.154526710510254,36534.4375
65,41.387681113349068,12.1842041015625,36539.453125
65.2,41.101601748996309,12.211507797241211,36556.91796875
65.4,40.849618148803714,12.231905937194824,36575.4296875
65.6,40.637391323513455,12.24888801574707,36576.421875
65.8,40.433945931328665,12.259990692138672,36578.24609375
66,40.240823109944664,12.267184257507324,36584.57421875
66.2,40.064748170640733,12.271441459655762,36582.23828125
66.4,39.939279005262591,12.278812408447266,36579.9296875
66.6,39.840665308634442,12.287646293640137,36594.453125
66.8,39.744107733832465,12.294455528259277,36598.609375
67,39.65427928500705,12.301599502563477,36611.78125
67.2,39.618650054931642,12.308226585388184,36606.30078125
67.4,39.547406811184352,12.312007904052734,36609.5859375
67.6,39.457570732964413,12.31401538848877,36624.078125
67.8,39.364629491170248,12.315303802490234,36613.42578125
68,39.20559861924913,12.316365242004395,36606.3359375
68.2,39.036748716566294,12.316807746887207,36602.0859375
68.4,38.872560373942058,12.319558143615723,36609.6953125
68.6,38.682027732001409,12.325496673583984,36619.6171875
68.8,38.442964511447485,12.332259178161621,36630.3671875
69,38.202859878540039,12.338117599487305,36628.859375
69.2,37.937456173366968,12.348516464233398,36649.1875
69.4,37.641584481133357,12.362139701843262,36660.47265625
69.6,37.281690724690755,12.385166168212891,36687.69921875
69.8,36.920248201158316,12.466797828674316,36869.39453125
70,36.60476515028212,12.635111808776856,37118.921875
70.2,36.319231287638345,12.859463691711426,37314.84375
70.4,36.056932746039493,13.141779899597168,37621.765625
70.6,35.782240253024632,13.545857429504395,38095.9375
70.8,35.506517791748045,13.916997909545898,38208.546875
71,35.276239818996856,14.215293884277344,38332.65625
71.2,35.074869622124567,14.433197975158691,38382
71.4,34.938562901814777,14.567817687988281,38398.4296875
71.6,34.80535753038194,14.653690338134766,38411.8828125
71.8,34.686609861585829,14.710775375366211,38419.375
72,34.625693003336586,14.743941307067871,38397.1875
72.2,34.515204154120553,14.763408660888672,38421.17578125
72.4,34.394907718234592,14.781871795654297,38452.21875
72.6,34.31178169250488,14.795377731323242,38443.8828125
72.8,34.19871792263455,14.806651115417481,38455.9609375
73,34.034529580010307,14.81157398223877,38460.359375
73.2,33.8460683186849,14.815898895263672,38464.8125
73.4,33.676207521226672,14.818230628967285,38466.7734375
73.6,33.461932203504773,14.819099426269531,38460.69140625
73.8,33.205325190226233,14.823201179504395,38470.96484375
74,32.922885047064888,14.82979679107666,38473.453125
74.2,32.685900836520723,14.834072113037109,38479.625
74.4,32.520163726806643,14.839736938476563,38472.58203125
74.6,32.430846447414822,14.847212791442871,38478.7265625
74.8,32.345668114556204,14.85041618347168,38471.18359375
75,32.216071446736656,14.853170394897461,38488.50390625
75.2,32.077189805772569,14.856607437133789,38485.61328125
75.4,31.9419130537245,14.860301017761231,38486.22265625
75.6,31.827300516764325,14.863748550415039,38491.234375
75.8,31.7292056189643,14.864528656005859,38480.73828125
76,31.652278476291233,14.869019508361816,38488.5390625
76.2,31.542831039428712,14.87388801574707,38506.4375
76.4,31.384837765163844,14.885256767272949,38519.71875
76.6,31.209811867607964,14.891162872314453,38512.125
76.8,30.983665211995444,14.894523620605469,38521.70703125
77,30.738929536607529,14.897063255310059,38542.6328125
77.2,30.514331648084852,14.906896591186523,38536.4140625
77.4,30.3351744333903,14.917105674743652,38549.6953125
77.6,30.144653235541448,14.92891788482666,38552.60546875
77.8,29.884429889255102,14.934955596923828,38555.3671875
78,29.606132507324219,14.941076278686523,38566.4375
78.2,29.374820751614038,14.945572853088379,38567.49609375
78.4,29.210125054253474,14.950066566467285,38566.0390625
78.6,29.039737828572591,14.953376770019531,38534.28125
78.8,28.825985124376086,14.956659317016602,38564.015625
79,28.645275327894424,14.958969116210938,38478.71875
79.2,28.533237711588541,14.962505340576172,38501.50390625
79.4,28.41603880988227,14.96818733215332,38519.39453125
79.6,28.297294955783421,14.967979431152344,38569.92578125
79.8,28.192490005493163,14.967190742492676,38565.56640625
80,28.109886593288845,14.970142364501953,38574.05859375
80.2,27.994232643975153,14.972278594970703,38572.8203125
80.4,27.864128621419269,14.971812248229981,38574.32421875
80.6,27.768616273668076,14.970909118652344,38580.1015625
80.8,27.654511091444228,14.97393798828125,38581.94140625
81,27.495491663614906,14.970598220825195,38565.390625
81.2,27.296192847357858,14.966339111328125,38564.640625
81.4,27.112904315524631,14.966166496276856,38574.21875
81.6,26.929608154296876,14.965883255004883,38570.78515625
81.8,26.722565502590605,14.965035438537598,38567.6640625
82,26.466984642876518,14.962760925292969,38566.4140625
82.2,26.183522160847982,14.962499618530273,38520.8515625
82.4,25.886631944444446,14.96306324005127,38553.921875
82.6,25.643960020277234,14.960563659667969,38568.2421875
82.8,25.384762827555338,14.962043762207031,38561.9453125
83,25.078057395087349,14.96168327331543,38568.7578125
83.2,24.803368716769747,14.960827827453613,38573.11328125
83.4,24.548817825317382,14.962827682495117,38558.0703125
83.6,24.27154278225369,14.963041305541992,38560.11328125
83.8,24.018540657891165,14.962265014648438,38561.04296875
84,23.758824666341148,14.960714340209961,38563.9140625
84.2,23.5367978837755,14.96153736114502,38554.4140625
84.4,23.397904798719619,14.963099479675293,38565.15625
84.6,23.250756708780926,14.964521408081055,38564.46484375
84.8,23.067975531684027,14.964585304260254,38549.640625
85,22.910497241550022,14.96434211730957,38558.2421875
85.2,22.726163482666017,14.964890480041504,38553.8515625
85.4,22.525827068752712,14.963190078735352,38552.41015625
85.6,22.330648125542535,14.962274551391602,38549.328125
85.8,22.121011479695639,14.962839126586914,38557.296875
86,21.88555696275499,14.962978363037109,38555.0625
86.2,21.660432646009657,14.962921142578125,38549.59375
86.4,21.446664683024089,14.963558197021484,38554.5625
86.6,21.206560050116643,14.964237213134766,38547.5
86.8,20.940633731418188,14.963607788085938,38548.203125
87,20.740289688110352,14.963362693786621,38552.9609375
87.2,20.528585476345484,14.965129852294922,38556.734375
87.4,20.294157112969295,14.965282440185547,38538.9765625
87.6,20.0664426167806,14.9635009765625,38542.26171875
87.8,19.871776750352648,14.964964866638184,38560.9140625
88,19.716352674696182,14.964483261108398,38560.50390625
88.2,19.533563868204752,14.963273048400879,38552.8359375
88.4,19.373491583930122,14.964351654052734,38555.2109375
88.6,19.300178866916234,14.965439796447754,38553.73046875
88.8,19.288826370239256,14.968469619750977,38551.21875
89,19.289869732326931,14.973705291748047,38559.6953125
89.2,19.219135750664606,14.97785758972168,38559.1796875
89.4,19.121035130818683,14.977375984191895,38553.2890625
89.6,19.007437303331162,14.974172592163086,38550.1171875
89.8,18.9145017835829,14.971216201782227,38537.2734375
90,18.874228159586586,14.974114418029785,38555.52734375
90.2,18.888186179267038,14.974784851074219,38563.5625
90.4,18.899554019504123,14.974956512451172,38564.265625
90.6,18.809710311889649,14.97314453125,38544.8828125
90.8,18.650673717922636,14.970975875854492,38552.6875
91,18.518486870659721,14.969783782958984,38551.01171875
91.2,18.438454564412435,14.969629287719727,38548.046875
91.4,18.358422258165149,14.967647552490234,38549.34375
91.6,18.262385389539929,14.969023704528809,38545.4296875
91.8,18.153435770670573,14.966117858886719,38544.43359375
92,18.0770197974311,14.96647834777832,38554.2734375
92.2,18.0491401248508,14.970359802246094,38553.7109375
92.4,18.045022201538085,14.974042892456055,38548.015625
92.6,17.945365185207791,14.976619720458984,38547.2578125
92.8,17.770316399468314,14.972458839416504,38545.14453125
93,17.567378362019859,14.968481063842773,38544.0625
93.2,17.382512452867296,14.967262268066406,38539.0546875
93.4,17.207457945081924,14.9667387008667,38543.2578125
93.6,16.968368021647137,14.965471267700195,38536.109375
93.8,16.744769583808051,14.964068412780762,38537.171875
94,16.557836108737522,14.96318244934082,38547.33203125
94.2,16.36780128479004,14.963438987731934,38542.8046875
94.4,16.088939327663844,14.963101387023926,38538.6796875
94.6,15.812663735283746,14.961307525634766,38540.55078125
94.8,15.561170323689778,14.960899353027344,38539.90625
